"Time (s)"	"Linear Acceleration x (m/s^2)"	"Linear Acceleration y (m/s^2)"	"Linear Acceleration z (m/s^2)"	"Absolute acceleration (m/s^2)"
-1.812625000e-3	-1.477749270e0	-2.926977284e-1	-1.146751841e0	1.893265605e0
8.168375003e-3	-1.400591167e0	-1.875223987e-1	-1.256516358e0	1.890939878e0
1.814837500e-2	-1.386430964e0	-8.327677622e-2	-1.334593059e0	1.926204681e0
2.812937500e-2	-1.630346396e0	-4.668271710e-2	-1.409452037e0	2.155635334e0
3.810937500e-2	-2.025490705e0	-7.180512384e-2	-1.465606942e0	2.501154190e0
4.809037500e-2	-2.489608185e0	-7.147605350e-2	-1.597452884e0	2.958904097e0
5.807037500e-2	-2.885776926e0	-4.124333560e-2	-1.703707318e0	3.351421803e0
6.805137500e-2	-3.198558524e0	2.340755543e-2	-1.787858691e0	3.664391252e0
7.803137500e-2	-3.517200202e0	1.135268987e-1	-1.840428084e0	3.971241764e0
8.801237500e-2	-3.765492275e0	2.259954697e-1	-1.790535547e0	4.175646485e0
9.799237500e-2	-3.941752498e0	2.122936893e-1	-1.756539250e0	4.320637858e0
1.079729167e-1	-4.038543797e0	1.053506000e-1	-1.762556620e0	4.407668385e0
1.179529167e-1	-3.982732124e0	3.336070418e-2	-1.736963357e0	4.345147847e0
1.279339167e-1	-3.794864008e0	5.852565398e-2	-1.745254124e0	4.177359220e0
1.379139167e-1	-3.531957405e0	1.327629317e-1	-1.758094025e0	3.947561742e0
1.478949167e-1	-3.210521343e0	1.788927855e-1	-1.770969594e0	3.670937649e0
1.578749167e-1	-2.868373858e0	2.496455567e-1	-1.765828722e0	3.377579394e0
1.678559167e-1	-2.562897186e0	2.760214694e-1	-1.800172927e0	3.144082124e0
1.778369167e-1	-2.263868238e0	2.196756528e-1	-1.785963024e0	2.891888780e0
1.878169167e-1	-1.940696138e0	2.494641468e-2	-1.816742767e0	2.658472889e0
1.977979167e-1	-1.284568959e0	-4.743071303e-1	-1.826905813e0	2.283127135e0
2.077779167e-1	-9.318766057e-2	-9.204710269e-1	-1.482658592e0	1.747634788e0
2.177589167e-1	1.658567398e0	-1.178911088e0	-8.792820704e-1	2.216712459e0
2.277389167e-1	3.797277154e0	-1.339604561e0	9.191823006e-3	4.026653531e0
2.377199167e-1	5.879232082e0	-1.345021129e0	8.810765809e-1	6.095141315e0
2.476999167e-1	7.831153704e0	-1.203405221e0	1.844697720e0	8.134989990e0
2.576809167e-1	9.483378627e0	-7.143215919e-1	3.281017714e0	1.006030828e1
2.676609167e-1	1.027314626e1	9.337389439e-2	4.973024753e0	1.141390502e1
2.776419167e-1	1.000377907e1	5.413328862e-1	7.037152104e0	1.224296315e1
2.876219167e-1	9.287159518e0	2.616262092e-1	9.037013294e0	1.296099493e1
2.976029167e-1	8.973479787e0	-1.457738819e-1	1.044185246e1	1.376869174e1
3.075829167e-1	9.750679412e0	-1.325506778e-1	1.100465632e1	1.470359750e1
3.175639167e-1	1.126972347e1	2.526526335e-1	1.090491335e1	1.568399298e1
3.275449167e-1	1.278223795e1	5.875630197e-1	1.044191210e1	1.651557948e1
3.375249167e-1	1.364194939e1	4.746692191e-1	9.745460188e0	1.677206273e1
3.475059167e-1	1.395371240e1	5.017482595e-1	9.272868338e0	1.676138205e1
3.574859167e-1	1.377265337e1	4.863270322e-1	8.922856933e0	1.641766947e1
3.674669167e-1	1.287335979e1	3.921487802e-1	8.196601174e0	1.526635005e1
3.774469167e-1	1.183047262e1	4.856314328e-1	7.427431530e0	1.397721931e1
3.874279167e-1	1.089881003e1	5.813428979e-1	6.451111407e0	1.267828293e1
3.974079167e-1	1.014483262e1	6.454817373e-1	5.191652731e0	1.141435647e1
4.073889167e-1	9.660907111e0	4.904952930e-1	3.598833180e0	1.032111002e1
4.173689167e-1	9.393479440e0	3.515546317e-1	1.805786839e0	9.571933596e0
4.273499167e-1	9.103462222e0	1.616910079e-1	6.019766986e-2	9.105097043e0
4.373299167e-1	8.524934612e0	-2.529156120e-1	-1.705051008e0	8.697452235e0
4.473109167e-1	7.736100782e0	-2.307067175e-1	-3.067320400e0	8.325198816e0
4.572909167e-1	6.441971624e0	4.329660000e-1	-3.802002874e0	7.492775442e0
4.672719167e-1	4.249723007e0	1.058149274e0	-3.805507695e0	5.801871624e0
4.772519167e-1	1.148201365e0	1.389086185e0	-3.095433521e0	3.581848055e0
4.872329167e-1	-2.188257893e0	1.452075608e0	-2.058778319e0	3.336999302e0
4.972139167e-1	-5.241183325e0	1.531481381e0	-1.332981274e0	5.620700752e0
5.071939167e-1	-7.632417954e0	1.575820964e0	-1.063239568e0	7.865589228e0
5.171749167e-1	-9.108143502e0	1.428644061e0	-1.206613296e0	9.298129788e0
5.271549167e-1	-9.441435379e0	9.424998271e-1	-1.601040443e0	9.622491281e0
5.371359167e-1	-8.788275663e0	4.295673059e-1	-2.246613690e0	9.081056672e0
5.471159167e-1	-7.692120364e0	3.845900846e-1	-3.027621607e0	8.275452726e0
5.570969167e-1	-6.498245813e0	6.308672065e-1	-3.502428966e0	7.408927098e0
5.670769167e-1	-5.869828005e0	6.563598973e-1	-3.520102175e0	6.875813293e0
5.770579167e-1	-6.064051459e0	4.236829604e-1	-3.402524609e0	6.966304692e0
5.870379167e-1	-6.794291511e0	1.022072100e-1	-3.202172981e0	7.511774440e0
5.970189167e-1	-7.781423135e0	-1.719957022e-1	-3.126109183e0	8.387650872e0
6.069989167e-1	-8.719334067e0	-4.448568977e-1	-3.264025705e0	9.320866271e0
6.169799167e-1	-9.361491662e0	-5.724486981e-1	-3.393785360e0	9.974116639e0
6.269599167e-1	-9.551617972e0	-7.829154249e-1	-3.419692619e0	1.017549311e1
6.369409167e-1	-9.489603572e0	-1.187179636e0	-3.658879699e0	1.023959824e1
6.469219167e-1	-9.360473662e0	-1.606577903e0	-4.220722864e0	1.039298134e1
6.569019167e-1	-8.984723398e0	-1.870916928e0	-4.906366494e0	1.040663331e1
6.668829167e-1	-8.789648589e0	-1.946036253e0	-5.430012138e0	1.051332541e1
6.768629167e-1	-9.226751348e0	-1.836188998e0	-6.123528167e0	1.122506693e1
6.868439167e-1	-9.863429518e0	-1.404409106e0	-6.607131493e0	1.195465572e1
6.968239167e-1	-1.068327464e1	-9.024190642e-1	-6.889453191e0	1.274406852e1
7.068049167e-1	-1.150294201e1	-4.499220483e-1	-6.922591701e0	1.343288430e1
7.167849167e-1	-1.199977057e1	-1.984780160e-1	-6.420265006e0	1.361079314e1
7.267659167e-1	-1.197890770e1	-7.912744582e-2	-5.375340087e0	1.312991896e1
7.367459167e-1	-1.158218581e1	-5.791009292e-2	-4.200308188e0	1.232042900e1
7.467269167e-1	-1.084984778e1	-4.349630434e-2	-3.336083867e0	1.135123537e1
7.567069167e-1	-9.887836965e0	1.724868684e-1	-2.869370808e0	1.029720158e1
7.666879167e-1	-8.994824463e0	4.410047155e-1	-2.775496100e0	9.423626207e0
7.766679167e-1	-8.305721912e0	5.928038791e-1	-2.874094189e0	8.808907443e0
7.866489167e-1	-8.011440904e0	4.321301405e-1	-3.230009820e0	8.648866126e0
7.966289167e-1	-7.924479944e0	2.343108133e-1	-3.803998821e0	8.793332188e0
8.066099167e-1	-7.694187355e0	1.979330738e-1	-4.326999224e0	8.829644322e0
8.165909167e-1	-7.339793462e0	2.617773597e-1	-4.549274696e0	8.639270554e0
8.265709167e-1	-6.951453558e0	3.007715638e-1	-4.290075227e0	8.174222627e0
8.365519167e-1	-6.386512538e0	2.036969666e-1	-3.512852798e0	7.291719251e0
8.465319167e-1	-5.428246863e0	1.839042878e-1	-2.042611352e0	5.802753306e0
8.565129167e-1	-4.077931811e0	2.735707094e-2	-3.002290884e-1	4.089060255e0
8.664929167e-1	-2.360720934e0	-1.352115995e-1	1.472125418e0	2.785397413e0
8.764739167e-1	-7.174849355e-1	-4.374702564e-1	2.957236333e0	3.074314816e0
8.864539167e-1	9.231139684e-1	-9.580727166e-1	3.923482288e0	4.142916363e0
8.964349167e-1	2.870926752e0	-1.278279840e0	4.907005595e0	5.827085350e0
9.064149167e-1	5.065493206e0	-1.434798109e0	5.779896659e0	7.818252517e0
9.163959167e-1	7.767285152e0	-1.165404897e0	6.530273936e0	1.021437051e1
9.263759167e-1	1.072215161e1	-7.365850116e-1	7.402456902e0	1.305003681e1
9.363569167e-1	1.329517676e1	-2.834737092e-1	7.754018989e0	1.539372901e1
9.463369167e-1	1.582876828e1	6.060636831e-1	7.604778750e0	1.757127993e1
9.563179167e-1	1.828683483e1	1.601802336e0	7.544681067e0	1.984682119e1
9.662979167e-1	2.013363580e1	2.611393992e0	7.297776539e0	2.157406339e1
9.762789167e-1	2.119444468e1	3.052592141e0	6.807464118e0	2.246918716e1
9.862599167e-1	2.187266088e1	2.926848061e0	5.966747943e0	2.286004844e1
9.962399167e-1	2.324758920e1	3.302409752e0	4.869461208e0	2.398057477e1
1.006220917e0	2.493021438e1	4.077186291e0	3.663812411e0	2.552572347e1
1.016200917e0	2.581824506e1	4.563276438e0	2.614981844e0	2.634849900e1
1.026181917e0	2.592156302e1	4.468920504e0	2.529808962e0	2.642534036e1
1.036161917e0	2.559234373e1	4.236572619e0	3.357544318e0	2.615702026e1
1.046142917e0	2.343593036e1	3.267282019e0	4.552810507e0	2.409659825e1
1.056122917e0	1.916486209e1	2.170743435e0	4.644242541e0	1.983867573e1
1.066103917e0	1.476129825e1	2.033881459e0	3.676909004e0	1.534771187e1
1.076083917e0	1.125260750e1	2.430831534e0	2.104050678e0	1.170286917e1
1.086064917e0	7.943482225e0	2.711530484e0	1.960796526e-1	8.395817688e0
1.096044917e0	4.877340331e0	2.651505015e0	-1.526002248e0	5.757396148e0
1.106026792e0	2.788406167e0	1.801397919e0	-2.278708764e0	4.026506804e0
1.116006792e0	8.192691725e-1	1.355003350e0	-2.137207315e0	2.659866756e0
1.125987792e0	-2.165766578e0	1.068703206e0	-1.539616320e0	2.864103669e0
1.135968792e0	-5.679062594e0	4.759572876e-1	-4.413650867e-1	5.716038001e0
1.145948792e0	-9.008202893e0	-2.499021763e-1	9.326873222e-1	9.059805522e0
1.155929792e0	-1.146361598e1	-1.193464223e0	2.212954777e0	1.173609888e1
1.165909792e0	-1.261039179e1	-2.370401145e0	3.018647300e0	1.318154066e1
1.175890792e0	-1.275403683e1	-2.589960731e0	3.570322741e0	1.349520494e1
1.185870792e0	-1.258828581e1	-2.311206858e0	3.937096360e0	1.339056923e1
1.195851792e0	-1.275824799e1	-2.225803011e0	3.703592480e0	1.347010349e1
1.205831792e0	-1.372276610e1	-1.900176395e0	2.437408629e0	1.406648287e1
1.215812792e0	-1.481160302e1	-1.281373456e0	6.478036666e-1	1.488103328e1
1.225792792e0	-1.546707706e1	-7.555254588e-1	-1.220056629e0	1.553350668e1
1.235773792e0	-1.516451523e1	-3.458116427e-1	-2.790898835e0	1.542307441e1
1.245753792e0	-1.443026866e1	-3.753886867e-2	-4.017270165e0	1.497906948e1
1.255734792e0	-1.334289004e1	1.816497476e-1	-5.030867164e0	1.426097246e1
1.265714792e0	-1.190239338e1	5.160973267e-1	-5.326884795e0	1.305025004e1
1.275695792e0	-1.069587656e1	8.335890768e-1	-5.074931781e0	1.186809078e1
1.285676792e0	-9.938538172e0	9.703822750e-1	-4.367311099e0	1.089906368e1
1.295656792e0	-9.480847367e0	9.453529760e-1	-3.301785854e0	1.008374677e1
1.305637792e0	-9.302687384e0	7.686913419e-1	-2.288118103e0	9.610742084e0
1.315617792e0	-9.133674200e0	6.056602983e-1	-1.424162462e0	9.263858133e0
1.325598792e0	-9.323815128e0	4.999041208e-1	-9.983047763e-1	9.390423052e0
1.335578792e0	-9.657891701e0	5.201880388e-1	-1.153144309e0	9.740390624e0
1.345559792e0	-9.433831075e0	8.954368309e-1	-1.329038496e0	9.568976915e0
1.355539792e0	-8.911824406e0	1.243698822e0	-1.379420738e0	9.103307233e0
1.365520792e0	-8.546363488e0	1.239263563e0	-1.654994164e0	8.792901042e0
1.375500792e0	-8.258182880e0	1.225447031e0	-1.970049160e0	8.577901759e0
1.385481792e0	-7.931684883e0	1.361445666e0	-1.952721521e0	8.281200439e0
1.395461792e0	-7.774723980e0	1.405382375e0	-1.902510603e0	8.126560107e0
1.405442792e0	-7.868174765e0	1.340862590e0	-1.701035140e0	8.160858237e0
1.415422792e0	-8.270976003e0	1.119898064e0	-1.601934775e0	8.498788781e0
1.425403792e0	-8.854914041e0	9.075434178e-1	-1.635958554e0	9.050386628e0
1.435383792e0	-9.449742519e0	8.860996315e-1	-1.556228260e0	9.617933906e0
1.445364792e0	-9.613512504e0	7.046382373e-1	-1.096218157e0	9.701434531e0
1.455345792e0	-9.336665554e0	2.523982796e-1	-4.578007329e-1	9.351289220e0
1.465325792e0	-8.541186363e0	-2.185878880e-1	-2.003223923e-1	8.546331038e0
1.475306792e0	-6.985611822e0	-5.879886604e-1	-7.292968959e-2	7.010693399e0
1.485286792e0	-4.830097167e0	-8.971687031e-1	2.325879130e-1	4.918215882e0
1.495267792e0	-2.284829337e0	-9.425085980e-1	8.803819317e-1	2.623707282e0
1.505247792e0	8.937287861e-1	-3.126657872e-1	2.125904062e0	2.327225627e0
1.515228792e0	3.587974316e0	6.035205463e-2	3.518813449e0	5.025858151e0
1.525208792e0	5.457565387e0	-1.148080328e-1	3.935980711e0	6.729795316e0
1.535189792e0	7.812337364e0	4.589307073e-1	3.525227845e0	8.583149995e0
1.545169792e0	1.111940559e1	1.868278372e0	2.086411383e0	1.146668031e1
1.555150792e0	1.506170247e1	2.583373258e0	-4.713662732e-1	1.528891379e1
1.565130792e0	1.809435502e1	3.118655445e0	-3.298174029e0	1.865501668e1
1.575111792e0	2.090048643e1	2.484636590e0	-4.299188697e0	2.148224326e1
1.585091792e0	2.503836448e1	9.989688007e-1	-4.536368429e0	2.546558998e1
1.595072792e0	2.996136689e1	-5.646122597e-2	-3.916762667e0	3.021634862e1
1.605053792e0	3.355819974e1	-9.395372622e-1	-3.016676496e0	3.370661414e1
1.615033792e0	3.319810247e1	-1.555052385e-1	-2.329645906e0	3.328010576e1
1.625014792e0	2.986870723e1	1.246392781e0	-9.529350606e-1	2.990988552e1
1.634994792e0	2.337691558e1	2.484807621e0	1.857157260e0	2.358184649e1
1.644975792e0	1.493984181e1	2.608613057e0	5.275858483e0	1.605734780e1
1.654955792e0	8.399303091e0	1.746356324e0	7.951863039e0	1.169744325e1
1.664936792e0	4.385501786e0	4.303164804e-1	9.347678200e0	1.033425788e1
1.674916792e0	2.663907251e0	-9.639226366e-1	1.009374783e1	1.048376335e1
1.684897792e0	2.391537514e0	-2.826790799e0	9.557178090e0	1.024938295e1
1.694877792e0	3.523639156e0	-5.383593432e0	8.238701127e0	1.045348303e1
1.704858792e0	5.441487299e0	-6.277375427e0	6.596701230e0	1.060809565e1
1.714838792e0	6.460449411e0	-5.063705712e0	4.430115165e0	9.327617193e0
1.724819792e0	5.257443847e0	-3.278649884e0	1.689207685e0	6.422124529e0
1.734799792e0	2.161502788e0	-1.707490759e0	-1.342476567e0	3.064288225e0
1.744780792e0	-2.075436451e0	-7.558391619e-1	-3.943363113e0	4.519827645e0
1.754760792e0	-6.314961914e0	5.050068397e-2	-5.508308694e0	8.379902086e0
1.764741792e0	-9.719690339e0	8.568924969e-1	-5.729809409e0	1.131535951e1
1.774722792e0	-1.196705540e1	1.118213628e0	-4.947713910e0	1.299771863e1
1.784702792e0	-1.291768987e1	6.042989203e-1	-3.573759735e0	1.341654379e1
1.794683792e0	-1.261042103e1	7.391991556e-2	-1.758018011e0	1.273258850e1
1.804663792e0	-1.181459042e1	-3.884886425e-2	-2.074372843e-1	1.181647520e1
1.814644792e0	-1.117733162e1	4.284340059e-1	1.224238850e0	1.125233569e1
1.824624792e0	-1.069258575e1	6.447470346e-1	2.013431407e0	1.089958691e1
1.834605792e0	-1.096309782e1	7.910730947e-2	2.077064609e0	1.115840353e1
1.844585792e0	-1.110278430e1	-4.770403747e-1	1.889902252e0	1.127258254e1
1.854566792e0	-1.148348248e1	-7.272500780e-1	1.316405587e0	1.158154507e1
1.864546792e0	-1.214041014e1	-6.448829824e-1	4.479826730e-1	1.216577662e1
1.874527792e0	-1.235018952e1	-3.577566272e-1	-2.966494229e-1	1.235893086e1
1.884507792e0	-1.147318202e1	8.013408054e-2	-8.910411134e-1	1.150800945e1
1.894488792e0	-9.557150608e0	1.104239659e0	-6.990097806e-1	9.646091832e0
1.904469792e0	-8.079487876e0	1.660454294e0	-5.986203969e-1	8.270041063e0
1.914449792e0	-7.052289376e0	1.874670840e0	-7.506982899e-1	7.335715652e0
1.924430792e0	-6.606316976e0	1.787293850e0	-8.293670216e-1	6.893888087e0
1.934410792e0	-6.757750506e0	1.411466403e0	-1.099941079e0	6.990658029e0
1.944391792e0	-7.368113866e0	8.448255980e-1	-1.626400987e0	7.592628820e0
1.954371792e0	-7.913121142e0	5.129575181e-1	-2.405806767e0	8.286646959e0
1.964352792e0	-7.954536971e0	5.603848690e-1	-3.093621176e0	8.553314071e0
1.974332792e0	-7.705715725e0	1.000148696e0	-3.258169426e0	8.425794934e0
1.984313792e0	-7.580525669e0	1.270982369e0	-2.996750354e0	8.249865350e0
1.994293792e0	-7.658805853e0	1.091135172e0	-2.687675306e0	8.189718042e0
2.004274792e0	-7.501342090e0	7.630692440e-1	-2.122919936e0	7.833211147e0
2.014254792e0	-6.800836299e0	1.550593883e-1	-1.561409478e0	6.979499791e0
2.024235792e0	-6.043176899e0	9.412526160e-2	-1.195610005e0	6.161033183e0
2.034215792e0	-6.511992617e0	3.835466489e-1	-8.819697431e-1	6.582630667e0
2.044196792e0	-6.811075358e0	-2.499012810e-1	-7.979584104e-1	6.862210709e0
2.054176792e0	-7.227653221e0	-1.176331808e0	-4.522751141e-1	7.336707735e0
2.064157792e0	-7.420429489e0	-1.838695261e0	4.432043284e-2	7.644968173e0
2.074138792e0	-6.847802889e0	-2.214816823e0	5.717211583e-1	7.219742589e0
2.084118792e0	-5.938760830e0	-2.231938055e0	9.211662608e-1	6.410848225e0
2.094099792e0	-4.284885238e0	-2.121713655e0	1.183931069e0	4.925809894e0
2.104079625e0	-1.880223064e0	-1.989477411e0	1.312546425e0	3.035792690e0
2.114060625e0	1.555629505e0	-1.646836129e0	1.274087241e0	2.599105748e0
2.124040625e0	5.906790594e0	-1.512483485e0	7.513482079e-1	6.143476666e0
2.134021625e0	1.077741481e1	-1.586114256e0	-4.903907740e-1	1.090453629e1
2.144001625e0	1.581945951e1	-2.401197699e0	-2.309015760e0	1.616640354e1
2.153982625e0	2.019364928e1	-3.445164552e0	-3.403774159e0	2.076627816e1
2.163962625e0	2.449344141e1	-2.402575011e0	-2.732219395e0	2.476219016e1
2.173943625e0	2.978355072e1	-4.838187229e-2	-1.284410208e0	2.981127210e1
2.183923625e0	3.504866436e1	2.307271828e0	7.296532837e-1	3.513210456e1
2.193904625e0	3.562290304e1	7.611015829e-1	2.726252896e0	3.573517807e1
2.203884625e0	2.981474679e1	1.259080946e-2	6.446126071e0	3.050363628e1
2.213865625e0	2.047761580e1	-5.587306917e-3	1.028194749e1	2.291399625e1
2.223846625e0	1.302944653e1	-3.935378959e-2	1.179155239e1	1.757295460e1
2.233826625e0	9.197260916e0	2.657957125e-1	1.222549648e1	1.530107904e1
2.243807625e0	9.371654123e0	4.729818588e-1	1.117996053e1	1.459599706e1
2.253787625e0	1.127630159e1	7.296608850e-1	8.995791593e0	1.444339465e1
2.263768625e0	1.125066740e1	2.950393921e-1	6.125016283e0	1.281328957e1
2.273748625e0	9.566602632e0	-1.088282900e0	3.211156058e0	1.014966841e1
2.283729625e0	7.535750030e0	-1.654910841e0	7.082615376e-1	7.747766957e0
2.293709625e0	4.732193727e0	-1.669528003e0	-1.464175251e0	5.227311967e0
2.303690625e0	1.534228696e0	-1.405195557e0	-2.808150168e0	3.494873332e0
2.313670625e0	-1.662051753e0	-7.918477777e-1	-3.396965369e0	3.863782169e0
2.323651625e0	-4.744034339e0	3.805017114e-2	-3.311386982e0	5.785550395e0
2.333631625e0	-7.720778153e0	4.233296424e-1	-2.855302407e0	8.242716488e0
2.343612625e0	-9.784616067e0	6.195551831e-1	-2.311507551e0	1.007301481e1
2.353592625e0	-1.055707886e1	7.004429331e-1	-1.754378704e0	1.072475543e1
2.363573625e0	-1.040091026e1	5.666372967e-1	-1.183362720e0	1.048333722e1
2.373554625e0	-1.013490872e1	5.972264206e-1	-1.005301847e0	1.020214125e1
2.383534625e0	-1.027367368e1	8.086208081e-1	-1.064658687e0	1.036029616e1
2.393515625e0	-1.099891670e1	6.820379448e-1	-1.203309911e0	1.108554460e1
2.403495625e0	-1.208508846e1	2.988435906e-1	-1.723835188e0	1.221107196e1
2.413476625e0	-1.268118286e1	2.055571121e-1	-2.456624626e0	1.291857798e1
2.423456625e0	-1.236090864e1	2.358182073e-1	-3.184244540e0	1.276663957e1
2.433437625e0	-1.141173012e1	2.187887764e-1	-3.786646916e0	1.202556226e1
2.443417625e0	-1.018808096e1	3.962117180e-1	-4.116309134e0	1.099536167e1
2.453398625e0	-9.073140900e0	5.429388240e-1	-4.213025005e0	1.001829567e1
2.463378625e0	-8.191832770e0	7.297418690e-1	-3.815521344e0	9.066247870e0
2.473359625e0	-7.963068058e0	6.404133707e-1	-3.314653237e0	8.649133383e0
2.483339625e0	-8.236178638e0	2.992584506e-1	-3.470710452e0	8.942596112e0
2.493320625e0	-7.962010882e0	4.594476011e-1	-3.736871908e0	8.807322013e0
2.503300625e0	-7.554354701e0	8.243577120e-1	-3.703197209e0	8.453491004e0
2.513281625e0	-7.541478547e0	7.257099214e-1	-3.381291322e0	8.296606811e0
2.523262625e0	-7.603463126e0	3.708839187e-1	-2.765820419e0	8.099380778e0
2.533242625e0	-7.409073611e0	2.008992201e-1	-1.927436407e0	7.658312045e0
2.543223625e0	-6.942544155e0	1.093584278e-1	-8.720315230e-1	6.997950956e0
2.553203625e0	-6.597137432e0	-2.995364674e-1	5.107279748e-2	6.604131497e0
2.563184625e0	-6.606165533e0	-9.657115191e-1	2.349387860e-1	6.680510311e0
2.573164625e0	-6.371408011e0	-1.142980094e0	6.459243715e-2	6.473439250e0
2.583145625e0	-5.643238458e0	-8.714412466e-1	-2.847827911e-2	5.710197996e0
2.593125625e0	-5.191159810e0	-8.228426984e-1	-1.537428877e-1	5.258217108e0
2.603106625e0	-5.271542653e0	-1.098735090e0	-2.783833060e-1	5.392019845e0
2.613086625e0	-5.574744759e0	-1.289634695e0	-2.534311903e-1	5.727579256e0
2.623067625e0	-5.890910141e0	-1.290507684e0	-2.208104512e-1	6.034649089e0
2.633047625e0	-5.903244842e0	-1.274136650e0	-2.288559276e-1	6.043517097e0
2.643028625e0	-5.686554632e0	-1.107681915e0	-8.626748085e-2	5.794074981e0
2.653008625e0	-5.387542641e0	-9.277087104e-1	4.569014311e-3	5.466834554e0
2.662989625e0	-4.638186872e0	-5.862915426e-1	-2.232139492e-1	4.680420889e0
2.672970625e0	-3.131972187e0	8.049012115e-2	-5.394018432e-1	3.179100940e0
2.682950625e0	-1.162419455e0	6.465488541e-1	-7.930242375e-1	1.548590279e0
2.692931625e0	1.320934548e0	3.314786553e-1	-1.344003714e0	1.913398067e0
2.702911625e0	4.976712592e0	-7.958411336e-2	-1.786838937e0	5.288364136e0
