"Time (s)"	"Linear Acceleration x (m/s^2)"	"Linear Acceleration y (m/s^2)"	"Linear Acceleration z (m/s^2)"	"Absolute acceleration (m/s^2)"
-2.437083313e-4	-4.993875924e-1	-6.845569253e-1	8.198498011e-2	8.513093964e-1
9.737291672e-3	-1.075203410e0	-1.407901356e0	3.964473608e-1	1.815328926e0
1.971829167e-2	-1.678207464e0	-2.269903734e0	7.597073874e-1	2.923353993e0
2.969929167e-2	-2.109614889e0	-3.434546885e0	1.191204128e0	4.203041109e0
3.968029167e-2	-2.365670456e0	-4.814883882e0	1.565089715e0	5.588292165e0
4.966129167e-2	-2.647425705e0	-6.092246733e0	1.859891710e0	6.898081638e0
5.964229167e-2	-2.904820722e0	-7.209095913e0	2.254790144e0	8.092782334e0
6.962229167e-2	-2.796965029e0	-8.050466976e0	2.725337807e0	8.947653215e0
7.960329167e-2	-2.450758261e0	-8.626283816e0	3.248729681e0	9.537988943e0
8.958429167e-2	-2.167414031e0	-9.255267634e0	3.806673338e0	1.023955197e1
9.956529167e-2	-1.915431634e0	-1.005993806e1	4.173399009e0	1.105841270e1
1.095462917e-1	-1.550338652e0	-1.081165377e1	4.081173508e0	1.165981922e1
1.195272917e-1	-1.312459740e0	-1.127133847e1	3.757667823e0	1.195348021e1
1.295082917e-1	-1.271356006e0	-1.162382033e1	3.452372415e0	1.219214585e1
1.394892917e-1	-1.194155364e0	-1.167772230e1	3.102469183e0	1.214168523e1
1.494692917e-1	-9.741231774e-1	-1.129576229e1	2.688413809e0	1.165206980e1
1.594502917e-1	-3.885229218e-1	-1.060991547e1	2.135403449e0	1.082964470e1
1.694312917e-1	3.576022607e-1	-9.440282893e0	1.487424073e0	9.563433006e0
1.794122917e-1	8.364218335e-1	-7.665268196e0	8.210937962e-1	7.754362193e0
1.893932917e-1	9.892700972e-1	-5.575159911e0	3.569786552e-1	5.673490735e0
1.993742917e-1	1.095552597e0	-3.245553766e0	-6.858696252e-2	3.426158040e0
2.093552917e-1	1.193402389e0	-7.031662738e-1	-6.856120554e-1	1.545547140e0
2.193352917e-1	1.260944454e0	1.800554166e0	-1.519246960e0	2.672094225e0
2.293162917e-1	1.438116843e0	4.027161022e0	-2.395413049e0	4.901449748e0
2.392972917e-1	1.952496988e0	5.858599012e0	-3.209393415e0	6.959571320e0
2.492782917e-1	2.858540303e0	7.282524662e0	-3.785159385e0	8.691021211e0
2.592592917e-1	3.692831557e0	8.430649429e0	-4.065375208e0	1.006181546e1
2.692402917e-1	4.292304770e0	9.378826318e0	-4.001147345e0	1.106324742e1
2.792212917e-1	4.585971529e0	1.013236285e1	-3.496819440e0	1.165863019e1
2.892022917e-1	4.540628710e0	1.071104541e1	-2.843931327e0	1.197629944e1
2.991822917e-1	4.365152307e0	1.106861200e1	-2.354987154e0	1.212908450e1
3.091632917e-1	4.099800398e0	1.118856763e1	-2.107830611e0	1.210104784e1
3.191446667e-1	3.848177751e0	1.102942279e1	-2.064034381e0	1.186241447e1
3.291256667e-1	3.437445643e0	1.057643432e1	-2.171492171e0	1.133103586e1
3.391066667e-1	2.938905019e0	1.008488696e1	-2.298042583e0	1.075281858e1
3.490876667e-1	2.360830569e0	9.605022347e0	-2.437558902e0	1.018683801e1
3.590686667e-1	1.892941635e0	9.229981935e0	-2.813346004e0	9.833143459e0
3.690486667e-1	1.457001449e0	9.077497661e0	-3.134007310e0	9.713177586e0
3.790296667e-1	1.311790233e0	9.046034378e0	-3.270651477e0	9.708176588e0
3.890106667e-1	1.440222863e0	9.209277529e0	-3.227801912e0	9.864265796e0
3.989916667e-1	1.737533022e0	9.348047159e0	-2.898672667e0	9.940186614e0
4.089726667e-1	2.089235442e0	9.348469328e0	-2.382212082e0	9.870851935e0
4.189536667e-1	2.349930482e0	9.337729747e0	-1.791830705e0	9.794183344e0
4.289346667e-1	2.521748575e0	9.352360066e0	-1.334895360e0	9.777924130e0
4.389146667e-1	2.512398000e0	9.299427561e0	-1.146843057e0	9.700863141e0
4.488956667e-1	2.283557129e0	9.088961127e0	-9.911568475e-1	9.423706247e0
4.588766667e-1	1.955888081e0	8.641022893e0	-7.870668018e-1	8.894506674e0
4.688576667e-1	1.618548177e0	8.016538507e0	-6.606570160e-1	8.204940921e0
4.788386667e-1	1.224692156e0	7.299523687e0	-4.757712731e-1	7.416823797e0
4.888196667e-1	5.516071750e-1	6.182987918e0	-1.568229085e-1	6.209525223e0
4.988006667e-1	-1.532385653e-1	4.542142847e0	2.431161171e-1	4.551225016e0
5.087816667e-1	-7.461545648e-1	2.676605650e0	9.173860359e-1	2.926185499e0
5.187616667e-1	-1.208485136e0	6.394363010e-1	1.754391568e0	2.224231301e0
5.287426667e-1	-1.490950383e0	-1.670916717e0	2.767181651e0	3.559801962e0
5.387236667e-1	-2.192283993e0	-5.032742366e0	4.661167307e0	7.201464121e0
5.487046667e-1	-3.177469956e0	-9.604092640e0	7.168416833e0	1.239843178e1
5.586856667e-1	-4.059577401e0	-1.444062057e1	9.097834277e0	1.754372480e1
5.686666667e-1	-4.764322423e0	-1.882627088e1	9.697690190e0	2.170650682e1
5.786476667e-1	-5.351640152e0	-2.321916004e1	9.639683472e0	2.570394800e1
5.886276667e-1	-5.160867140e0	-2.580679153e1	8.010667902e0	2.750992256e1
5.986086667e-1	-5.040088223e0	-2.622308756e1	5.236682138e0	2.721168224e1
6.085896667e-1	-5.338728915e0	-2.606281070e1	2.461870455e0	2.671765211e1
6.185706667e-1	-6.051402177e0	-2.544911969e1	9.670142788e-1	2.617655970e1
6.285516667e-1	-6.580044851e0	-2.434236573e1	9.053828716e-1	2.523227056e1
6.385326667e-1	-6.419503698e0	-2.278999312e1	1.819121999e0	2.374664227e1
6.485136667e-1	-5.554486495e0	-2.058233943e1	3.255368902e0	2.156577018e1
6.584946667e-1	-4.057253425e0	-1.788622338e1	4.200799354e0	1.881555227e1
6.684746667e-1	-2.307787260e0	-1.496113503e1	4.825415887e0	1.588855192e1
6.784556667e-1	-9.159502521e-1	-1.184140224e1	5.043484286e0	1.290327500e1
6.884366667e-1	6.390919000e-2	-8.750160003e0	4.773524479e0	9.967743998e0
6.984176667e-1	5.516356802e-1	-5.683833922e0	4.126123978e0	7.045223138e0
7.083986667e-1	6.895790988e-1	-2.712060242e0	3.155066934e0	4.217254729e0
7.183796667e-1	6.654634273e-1	1.841715056e-1	1.817448818e0	1.944191586e0
7.283606667e-1	7.681648001e-1	3.257145286e0	1.060934888e-1	3.348182851e0
7.383406667e-1	1.000580513e0	5.959646500e0	-1.406422741e0	6.204560636e0
7.483216667e-1	1.265229294e0	8.160150801e0	-2.801740158e0	8.720012280e0
7.583026667e-1	1.756795650e0	9.617902594e0	-3.697694394e0	1.045290989e1
7.682836667e-1	2.619297674e0	1.067575512e1	-4.094376521e0	1.173014863e1
7.782646667e-1	3.817373742e0	1.140001698e1	-3.987903109e0	1.266633730e1
7.882456667e-1	5.155588274e0	1.174767137e1	-3.130264507e0	1.320554539e1
7.982266667e-1	6.310894006e0	1.181664513e1	-1.893976592e0	1.352950970e1
8.082076667e-1	6.734069867e0	1.176931075e1	-6.284653164e-1	1.357421604e1
8.181876667e-1	6.385181712e0	1.169289466e1	4.986018728e-1	1.333202666e1
8.281686667e-1	5.360463016e0	1.146707051e1	1.080978266e0	1.270420339e1
8.381496667e-1	3.890199351e0	1.130637382e1	1.070648575e0	1.200475024e1
8.481306667e-1	2.533849972e0	1.116163769e1	6.784916085e-1	1.146572730e1
8.581116667e-1	1.508278753e0	1.088044041e1	6.436848879e-2	1.098467258e1
8.680926667e-1	8.662721618e-1	1.069534563e1	-4.831023659e-1	1.074123985e1
8.780736667e-1	5.266326937e-1	1.074935519e1	-8.208895822e-1	1.079350910e1
8.880536667e-1	4.129569742e-1	1.076842998e1	-9.305475336e-1	1.081644750e1
8.980346667e-1	2.769406517e-1	1.074628891e1	-1.047255181e0	1.080074835e1
9.080156667e-1	2.143229654e-1	1.079251934e1	-1.313958527e0	1.087432274e1
9.179966667e-1	2.622669178e-1	1.078618096e1	-1.563550874e0	1.090207205e1
9.279776667e-1	3.411569667e-1	1.057805750e1	-1.712402274e0	1.072119444e1
9.379586667e-1	3.659880450e-1	1.046263698e1	-2.064403486e0	1.067063641e1
9.479396667e-1	3.942417911e-1	1.037395459e1	-2.430985170e0	1.066227224e1
9.579206667e-1	3.784883688e-1	1.015183290e1	-2.784866263e0	1.053368145e1
9.679006667e-1	3.895809755e-1	1.007834042e1	-3.206418352e0	1.058328104e1
9.778816667e-1	4.217339373e-1	1.009087568e1	-3.396140034e0	1.065539294e1
9.878626667e-1	5.844454305e-1	1.014179207e1	-3.425686600e0	1.072067402e1
9.978436667e-1	7.880722305e-1	1.024231740e1	-3.193612949e0	1.075756883e1
1.007824667e0	9.954109892e-1	1.036800447e1	-2.838639597e0	1.079556550e1
1.017805667e0	1.236378985e0	1.038566072e1	-2.546259226e0	1.076447944e1
1.027786667e0	1.439265820e0	1.006533738e1	-2.114612942e0	1.038528240e1
1.037766667e0	1.564921754e0	8.919681310e0	-1.319612785e0	9.151561215e0
1.047747667e0	1.170391403e0	6.689556184e0	-3.856817597e-1	6.802112054e0
1.057728667e0	5.680232330e-1	4.325976546e0	-1.868819824e-1	4.367109839e0
1.067709667e0	-2.094111581e-1	1.993965442e0	-2.576107800e-1	2.021413993e0
1.077690667e0	-7.719836167e-1	-1.040724279e0	-2.635340095e-2	1.296055644e0
1.087671667e0	-1.521704837e0	-4.278731044e0	4.597569188e-1	4.564482597e0
1.097652667e0	-2.404863611e0	-7.568942919e0	1.416617215e0	8.067159986e0
1.107632667e0	-3.109185002e0	-1.162746665e1	3.491323934e0	1.253213290e1
1.117613667e0	-3.314958169e0	-1.656606475e1	6.038526024e0	1.794121639e1
1.127594667e0	-3.334500149e0	-2.087322905e1	7.613181784e0	2.246711195e1
1.137575667e0	-4.185204245e0	-2.391116632e1	8.233843260e0	2.563310329e1
1.147556667e0	-5.809232140e0	-2.640052249e1	8.617241682e0	2.837237424e1
1.157537667e0	-7.593023508e0	-2.848339426e1	8.886530521e0	3.078844230e1
1.167518667e0	-8.725955454e0	-2.953154976e1	8.665298193e0	3.198971902e1
1.177499667e0	-9.011608896e0	-2.930623549e1	7.445158533e0	3.155146461e1
1.187479667e0	-8.409219968e0	-2.906522028e1	6.200854086e0	3.088612313e1
1.197460667e0	-6.541250914e0	-2.689331413e1	4.771537010e0	2.808568806e1
1.207441667e0	-4.525086519e0	-2.292890893e1	3.907041379e0	2.369548998e1
1.217422667e0	-3.424555456e0	-1.953887690e1	4.199775214e0	2.027642479e1
1.227403667e0	-2.290937338e0	-1.598567948e1	4.247616255e0	1.669828094e1
1.237384667e0	-9.174012387e-1	-1.193496705e1	3.689770247e0	1.252595178e1
1.247365667e0	7.816227517e-1	-7.490551053e0	2.725972230e0	8.009382860e0
1.257345667e0	2.260225131e0	-3.760526819e0	2.470437503e0	5.035200200e0
1.267326667e0	3.882052718e0	-1.027224228e0	2.715561262e0	4.847658805e0
1.277307667e0	5.142131492e0	1.199614763e0	2.449576685e0	5.820740313e0
1.287288667e0	5.856541961e0	3.602237429e0	1.340189137e0	7.005091374e0
1.297269667e0	5.850685390e0	5.592595723e0	-1.058883977e-1	8.094372046e0
1.307250667e0	5.391945595e0	6.963692365e0	-1.865498313e0	9.002564779e0
1.317232125e0	4.286580054e0	7.752914450e0	-3.896795011e0	9.678195203e0
1.327212125e0	3.130791926e0	8.946759766e0	-6.338778208e0	1.140291531e1
1.337193125e0	2.129269427e0	1.039053847e1	-7.752799845e0	1.313784546e1
1.347174125e0	1.564109429e0	1.088983338e1	-7.560324708e0	1.334891078e1
1.357155125e0	2.334118149e0	1.090362813e1	-6.330548837e0	1.282236572e1
1.367136125e0	3.830421804e0	1.133118122e1	-4.610339507e0	1.281885445e1
1.377117125e0	4.769603336e0	1.144531887e1	-2.381009603e0	1.262591172e1
1.387098125e0	4.765273181e0	1.120003987e1	-3.324295588e-1	1.217617472e1
1.397079125e0	4.199005720e0	1.121484385e1	8.551925652e-1	1.200565391e1
1.407059125e0	3.194523945e0	1.120408029e1	1.422316496e0	1.173709430e1
1.417040125e0	2.258850450e0	1.147793113e1	1.216292484e0	1.176115112e1
1.427021125e0	1.687735941e0	1.148703057e1	9.368900084e-1	1.164809369e1
1.437002125e0	1.488191959e0	1.114063683e1	5.423700361e-1	1.125267389e1
1.446983125e0	1.725559824e0	1.112666550e1	-2.876976281e-2	1.125971001e1
1.456964125e0	1.855831258e0	1.108489766e1	-3.202987790e-1	1.124373858e1
1.466944125e0	1.448463491e0	1.060230825e1	-4.737548608e-1	1.071127585e1
1.476925125e0	8.718011427e-1	1.026154538e1	-8.942614675e-1	1.033726533e1
1.486906125e0	2.276540324e-1	1.036941715e1	-1.487363555e0	1.047801932e1
1.496887125e0	-7.202983233e-1	1.042349922e1	-1.488888362e0	1.055390706e1
1.506868125e0	-1.579109292e0	1.001211252e1	-1.071828104e0	1.019238925e1
1.516849125e0	-2.266335471e0	9.132182575e0	-7.541722669e-1	9.439375555e0
1.526830125e0	-2.819784080e0	8.826083760e0	-1.554541338e0	9.395080392e0
1.536811125e0	-2.601142654e0	8.816814753e0	-3.036188655e0	9.680940401e0
1.546791125e0	-2.181817916e0	8.239011029e0	-3.957389414e0	9.396944351e0
1.556772125e0	-2.052221251e0	7.205930230e0	-4.524833334e0	8.752780087e0
1.566753125e0	-1.388698369e0	7.073457466e0	-5.651400002e0	9.159727379e0
1.576734125e0	-3.660982651e-1	7.761650190e0	-6.449166039e0	1.009796931e1
1.586715125e0	2.866809435e-2	8.210506437e0	-6.469921315e0	1.045337838e1
1.596696125e0	-6.778794050e-2	8.228249229e0	-5.608180892e0	9.957930181e0
1.606677125e0	1.350012459e-2	8.077896264e0	-4.718111001e0	9.354846964e0
1.616657125e0	-1.674638177e-1	7.867822763e0	-3.739287393e0	8.712803760e0
1.626638125e0	-8.703754453e-1	7.252933073e0	-2.707598231e0	7.790614851e0
1.636619125e0	-1.655592334e0	5.585736939e0	-1.449485730e0	6.003536626e0
1.646600125e0	-1.836888179e0	2.630265881e0	-8.632317558e-2	3.209347048e0
1.656581125e0	-1.534427355e0	-1.635705369e0	1.244380462e0	2.564855180e0
1.666562125e0	-1.561103230e0	-6.426044394e0	2.450418976e0	7.052350176e0
1.676543125e0	-1.612538408e0	-1.174413732e1	3.898598877e0	1.247894686e1
1.686523125e0	-1.013551245e0	-1.713797390e1	5.220341510e0	1.794406311e1
1.696504125e0	-1.021581226e0	-2.157549135e1	5.558846764e0	2.230350269e1
1.706485125e0	-1.295238959e0	-2.557407469e1	5.356999710e0	2.616120001e1
1.716466125e0	-2.255989115e0	-2.903151459e1	4.487259711e0	2.946275320e1
1.726447125e0	-3.709322167e0	-3.147906083e1	3.440921812e0	3.188307207e1
1.736428125e0	-4.731926802e0	-3.161037994e1	2.106083463e0	3.203190345e1
1.746409125e0	-5.369267753e0	-2.972448683e1	1.017377809e0	3.022266056e1
1.756389125e0	-5.408624192e0	-2.793965232e1	9.937458484e-1	2.847568995e1
1.766370125e0	-4.698568729e0	-2.633991259e1	1.417106481e0	2.679320313e1
1.776351125e0	-3.596301920e0	-2.416301993e1	1.592645596e0	2.448104245e1
1.786332125e0	-2.424695612e0	-2.147357438e1	1.801058634e0	2.168495694e1
1.796313125e0	-1.079966552e0	-1.788543751e1	2.543287379e0	1.809761071e1
1.806294125e0	-2.312705353e-1	-1.337738393e1	3.599559989e0	1.385513331e1
1.816275125e0	6.096058533e-2	-8.649404876e0	4.477528190e0	9.739824413e0
1.826255125e0	3.037445806e-1	-4.336865231e0	4.871368570e0	6.529233688e0
1.836236125e0	7.508754605e-1	-6.876617968e-1	4.861035370e0	4.966523691e0
1.846217125e0	1.430738533e0	2.325580922e0	4.449664453e0	5.220618078e0
1.856198125e0	2.234923351e0	4.762613282e0	3.628142933e0	6.390679839e0
1.866179125e0	2.950279316e0	6.973775888e0	2.541020413e0	7.987144854e0
1.876160125e0	3.362465919e0	9.112585632e0	1.403114240e0	9.813975929e0
1.886141125e0	3.396930870e0	1.101817509e1	3.284791799e-1	1.153460967e1
1.896121125e0	3.264323913e0	1.240738699e1	-4.142214346e-1	1.283630172e1
1.906102125e0	2.974550816e0	1.311222790e1	-5.808650342e-1	1.345792991e1
1.916083125e0	2.672395654e0	1.321770700e1	-3.786762106e-1	1.349047340e1
1.926064125e0	2.766185578e0	1.293428076e1	-4.212246448e-2	1.322683544e1
1.936045125e0	3.100872308e0	1.243315333e1	3.191249505e-1	1.281797767e1
1.946026125e0	3.479065247e0	1.187472903e1	6.218277034e-1	1.238950177e1
1.956007125e0	3.551511079e0	1.098857882e1	9.174240428e-1	1.158463475e1
1.965987125e0	3.423037519e0	1.018929952e1	7.736012489e-1	1.077670959e1
1.975968125e0	3.374668474e0	9.816498595e0	1.692605209e-1	1.038174750e1
1.985949125e0	3.154045426e0	9.346395906e0	-5.162837067e-1	9.877735967e0
1.995930125e0	2.718431076e0	8.557690129e0	-1.172689797e0	9.055337057e0
2.005911125e0	2.261525405e0	7.689795511e0	-1.900713169e0	8.237728007e0
2.015892125e0	1.901520085e0	6.983619091e0	-2.836101028e0	7.773685309e0
2.025873125e0	1.757853850e0	6.704773563e0	-3.995528463e0	8.000517882e0
2.035854125e0	1.604459895e0	6.828302425e0	-5.093915352e0	8.668793409e0
2.045834125e0	1.319113140e0	6.962415918e0	-5.850270823e0	9.189176437e0
2.055815125e0	1.024638004e0	7.166781367e0	-6.372024892e0	9.644446040e0
2.065796125e0	9.387865528e-1	7.523688979e0	-6.670708269e0	1.009879027e1
2.075777125e0	9.840602280e-1	7.882365373e0	-6.542999232e0	1.029130202e1
2.085758125e0	9.405383787e-1	8.224815744e0	-6.071069287e0	1.026596750e1
2.095739125e0	8.784358321e-1	8.529788386e0	-5.535561397e0	1.020643813e1
2.105720125e0	8.797112560e-1	8.981908548e0	-5.159267927e0	1.039550954e1
2.115700125e0	8.699816354e-1	9.440259504e0	-4.747650842e0	1.060262025e1
2.125681125e0	9.162217091e-1	9.553977324e0	-4.093999083e0	1.043449919e1
2.135662125e0	1.094064042e0	9.494537453e0	-3.298390084e0	1.011051901e1
2.145643125e0	1.303530018e0	9.383224009e0	-2.514021772e0	9.801244246e0
2.155624125e0	1.370406670e0	9.116607347e0	-1.702208384e0	9.374863057e0
2.165605125e0	1.354436170e0	8.653752866e0	-9.808908910e-1	8.813857438e0
2.175586125e0	1.475696605e0	7.947129133e0	-3.709225103e-1	8.091484749e0
2.185566125e0	1.550303861e0	6.914124348e0	1.279318160e-1	7.086954502e0
2.195547125e0	1.404965469e0	5.695948184e0	2.216316926e-1	5.870849537e0
2.205528125e0	9.973920259e-1	3.954343892e0	4.492474258e-1	4.102858725e0
2.215509125e0	6.155217737e-1	9.316444713e-1	1.141169504e0	1.596588961e0
2.225490125e0	4.897993281e-1	-2.908042538e0	1.810558606e0	3.460453330e0
2.235471125e0	4.335803962e-1	-6.852242680e0	2.125055339e0	7.187286129e0
2.245452125e0	-1.858362079e-2	-1.070411178e1	1.880972677e0	1.086813749e1
2.255432125e0	-7.742114058e-1	-1.440321711e1	1.378430804e0	1.448972525e1
2.265413125e0	-1.849697967e0	-1.790394278e1	1.100717297e0	1.803286245e1
2.275394125e0	-2.788108251e0	-2.074327352e1	1.333489105e0	2.097224683e1
2.285375125e0	-3.735129146e0	-2.317146313e1	2.320531851e0	2.358501137e1
2.295356125e0	-4.937752594e0	-2.525220652e1	3.695697570e0	2.599449009e1
2.305337125e0	-5.989478409e0	-2.608124814e1	4.979291214e0	2.721945439e1
2.315317167e0	-6.331428843e0	-2.620926708e1	5.982738909e0	2.761893982e1
2.325297167e0	-6.133562574e0	-2.613005134e1	6.594524311e0	2.763852246e1
2.335278167e0	-5.834731847e0	-2.532788586e1	6.681587598e0	2.683634682e1
2.345259167e0	-5.426020828e0	-2.377127519e1	6.382266875e0	2.520413769e1
2.355240167e0	-4.921159365e0	-2.170137021e1	5.742584406e0	2.298139582e1
2.365221167e0	-4.292804707e0	-1.904125078e1	4.786333097e0	2.009742242e1
2.375202167e0	-3.781303146e0	-1.579409195e1	3.847412643e0	1.668994243e1
2.385183167e0	-3.285330035e0	-1.192467829e1	2.877545800e0	1.269927618e1
2.395163167e0	-2.898727047e0	-7.630188995e0	2.192765511e0	8.451663930e0
2.405144167e0	-2.312392527e0	-3.568774399e0	2.134199215e0	4.757952942e0
2.415125167e0	-1.177148591e0	-3.515883994e-1	2.675635597e0	2.944200919e0
2.425106167e0	4.626556760e-1	1.725732025e0	3.290976399e0	3.744693172e0
2.435087167e0	2.137406412e0	3.666662636e0	3.022172002e0	5.210225011e0
2.445068167e0	3.494811798e0	5.862637099e0	1.972983001e0	7.104708663e0
2.455049167e0	4.352527291e0	8.341095228e0	5.329690289e-1	9.423503563e0
2.465029167e0	4.471462873e0	1.073456759e1	-7.135038587e-1	1.165049395e1
2.475010167e0	3.975844104e0	1.254563855e1	-1.462716663e0	1.324159821e1
2.484991167e0	3.354469852e0	1.350718744e1	-1.773131455e0	1.402998844e1
2.494972167e0	2.843851805e0	1.363743300e1	-1.796511986e0	1.404615703e1
2.504953167e0	2.462784083e0	1.327346604e1	-1.593218477e0	1.359369528e1
2.514934167e0	1.947253790e0	1.267442465e1	-1.358446775e0	1.289489105e1
2.524915167e0	1.391007873e0	1.198043032e1	-1.070594927e0	1.210833543e1
2.534895167e0	9.091126643e-1	1.137371503e1	-9.217160453e-1	1.144715860e1
2.544876167e0	4.920655628e-1	1.080493532e1	-9.356840202e-1	1.085653077e1
2.554857167e0	1.544960091e-1	1.035450909e1	-1.158242789e0	1.042023291e1
2.564838167e0	-2.957390115e-2	9.993513694e0	-1.551548295e0	1.011328298e1
2.574819167e0	-2.144226605e-1	9.641161648e0	-1.940072240e0	9.836760407e0
2.584800167e0	-3.829614888e-1	9.337078952e0	-2.281672718e0	9.619445579e0
2.594781167e0	-5.669388668e-1	9.129822639e0	-2.524007062e0	9.489240894e0
2.604761167e0	-7.939666624e-1	9.063105324e0	-2.731663325e0	9.499065517e0
2.614742167e0	-1.023784311e0	9.108303131e0	-2.976126348e0	9.636734317e0
2.624723167e0	-1.161184085e0	9.212802815e0	-3.227270692e0	9.830532046e0
2.634704167e0	-1.164212650e0	9.352301593e0	-3.488967214e0	1.004956857e1
2.644685167e0	-1.031606131e0	9.486738437e0	-3.706177534e0	1.023709770e1
2.654666167e0	-8.114091991e-1	9.562509581e0	-3.783615135e0	1.031579943e1
2.664646167e0	-6.328989677e-1	9.557397945e0	-3.756050483e0	1.028845624e1
2.674627167e0	-4.082053806e-1	9.459916089e0	-3.683893503e0	1.016010410e1
2.684608167e0	-1.576580371e-1	9.360722753e0	-3.637235646e0	1.004377766e1
2.694589167e0	9.592035681e-2	9.184754891e0	-3.622606789e0	9.873814009e0
2.704570167e0	3.073812564e-1	8.973490897e0	-3.601886011e0	9.674275423e0
2.714551167e0	5.426432472e-1	8.740886319e0	-3.538491669e0	9.445553379e0
2.724532167e0	7.933785787e-1	8.488798234e0	-3.390833101e0	9.175341637e0
2.734513167e0	9.451202568e-1	8.179271196e0	-3.187752870e0	8.829241075e0
